Serpentine Scan Parameters
X Total Distance (mm),16
Y Total Distance (mm),16
Step Size (mm),0.5
Start from Center,True

Step Number,X Position (mm),Y Position (mm)
0,315.16767501831055,432.17247009277344
1,315.65229415893555,432.27447509765625
2,316.14572525024414,432.2740173339844
3,316.66065216064453,432.2740936279297
4,317.15328216552734,432.27359771728516
5,317.6704978942871,432.2723388671875
6,318.16396713256836,432.2700881958008
7,318.65833282470703,432.23682403564453
8,319.1776466369629,432.2366714477539
9,319.6710777282715,432.2365951538086
10,320.1813507080078,432.23697662353516
11,320.6724548339844,432.2366714477539
12,321.16493225097656,432.2366714477539
13,321.6742706298828,432.23609924316406
14,322.1619415283203,432.236328125
15,322.67356872558594,432.2360610961914
16,323.16558837890625,432.2356414794922
17,323.65909576416016,432.2352600097656
18,324.1823959350586,432.23480224609375
19,324.6689224243164,432.2340393066406
20,325.1791763305664,432.23358154296875
21,325.67256927490234,432.23270416259766
22,326.1540222167969,432.2319793701172
23,326.67808532714844,432.23155975341797
24,327.1625518798828,432.23114013671875
25,327.66796112060547,432.2303771972656
26,328.1664276123047,432.22923278808594
27,328.6608123779297,432.2288131713867
28,329.1812515258789,432.2275924682617
29,329.66968536376953,432.22660064697266
30,330.17799377441406,432.22412109375
31,330.6753921508789,432.22240447998047
32,331.1660385131836,432.2199249267578
33,331.1861801147461,432.76317596435547
34,330.7334899902344,432.97142028808594
35,330.22823333740234,432.9544448852539
36,329.69024658203125,432.7108383178711
37,329.1854476928711,432.7104187011719
38,328.70800018310547,432.7107238769531
39,328.1853485107422,432.71068572998047
40,327.68016815185547,432.7106475830078
41,327.1873474121094,432.71068572998047
42,326.6939926147461,432.71080017089844
43,326.13807678222656,432.7112579345703
44,325.6559371948242,432.7109146118164
45,325.1515579223633,432.7113342285156
46,324.67090606689453,432.7110290527344
47,324.1584014892578,432.71095275878906
48,323.6685562133789,432.71141052246094
49,323.1730270385742,432.71121978759766
50,322.66571044921875,432.7116394042969
51,322.1855163574219,432.7113342285156
52,321.6741180419922,432.7116394042969
53,321.1376953125,432.7118682861328
54,320.6550979614258,432.7114486694336
55,320.1505661010742,432.7118682861328
56,319.6657943725586,432.71167755126953
57,319.1612243652344,432.71209716796875
58,318.6463165283203,432.7118682861328
59,318.1744384765625,432.71217346191406
60,317.6651191711426,432.7125549316406
61,317.1829414367676,432.7122497558594
62,316.6741752624512,432.71251678466797
63,316.20365142822266,432.71270751953125
64,315.6552505493164,432.71289825439453
65,315.1566696166992,432.71289825439453
66,315.15878677368164,433.21292877197266
67,315.63323974609375,433.1180191040039
68,316.14728927612305,433.1200408935547
69,316.64648056030273,433.12244415283203
70,317.1481704711914,433.12496185302734
71,317.66016006469727,433.1307601928711
72,318.1578826904297,433.1358337402344
73,318.6631393432617,433.17535400390625
74,319.17274475097656,433.2865524291992
75,319.6674346923828,433.3550262451172
76,320.1725387573242,433.3518981933594
77,320.66749572753906,433.34278106689453
78,321.1527633666992,433.32584381103516
79,321.67484283447266,433.3216857910156
80,322.1604537963867,433.11168670654297
81,322.67425537109375,433.1183624267578
82,323.16844940185547,433.1201171875
83,323.6629104614258,433.1214141845703
84,324.1802215576172,433.12469482421875
85,324.6689224243164,433.12862396240234
86,325.1796340942383,433.1340789794922
87,325.67237854003906,433.1704330444336
88,326.15650177001953,433.17325592041016
89,326.6768264770508,433.3641052246094
90,327.1617889404297,433.36219787597656
91,327.6728820800781,433.3589553833008
92,328.16761016845703,433.32897186279297
93,328.66065979003906,433.3236312866211
94,329.1804504394531,433.2942199707031
95,329.67132568359375,433.11798095703125
96,330.1786422729492,433.11885833740234
97,330.6734085083008,433.1211471557617
98,331.15478515625,433.12347412109375
99,331.15501403808594,433.6272430419922
100,330.70213317871094,433.73966217041016
101,330.15247344970703,433.7394714355469
102,329.6629333496094,433.7374496459961
103,329.15809631347656,433.73592376708984
104,328.67259979248047,433.73497009277344
105,328.17298889160156,433.7343978881836
106,327.66414642333984,433.7327194213867
107,327.1583557128906,433.7321472167969
108,326.68079376220703,433.7315368652344
109,326.19781494140625,433.7296676635742
110,325.6538391113281,433.72867584228516
111,325.15193939208984,433.72894287109375
112,324.6706771850586,433.72825622558594
113,324.1625213623047,433.7276077270508
114,323.6460494995117,433.7271499633789
115,323.1734848022461,433.7271499633789
116,322.6631164550781,433.7262725830078
117,322.18544006347656,433.7259292602539
118,321.67789459228516,433.72547149658203
119,321.1355972290039,433.72398376464844
120,320.6620788574219,433.7228775024414
121,320.1605987548828,433.72230529785156
122,319.6720504760742,433.72180938720703
123,319.16454315185547,433.72093200683594
124,318.6780548095703,433.72039794921875
125,318.17752838134766,433.71978759765625
126,317.6618957519531,433.71936798095703
127,317.1829414367676,433.71891021728516
128,316.6792297363281,433.7168884277344
129,316.1367607116699,433.7139129638672
130,315.6573295593262,433.7134552001953
131,315.15161514282227,433.71334075927734
132,315.1595878601074,434.2612075805664
133,315.6506156921387,434.23595428466797
134,316.1494255065918,434.23614501953125
135,316.6456413269043,434.23500061035156
136,317.1484565734863,434.2340087890625
137,317.65811920166016,434.2333221435547
138,318.16003799438477,434.2327117919922
139,318.6611557006836,434.23248291015625
140,319.17247772216797,434.23168182373047
141,319.66854095458984,434.2311477661133
142,320.1729202270508,434.2306137084961
143,320.6692886352539,434.2301559448242
144,321.15291595458984,434.22916412353516
145,321.6736602783203,434.22840118408203
146,322.1608352661133,434.2282485961914
147,322.6709747314453,434.22752380371094
148,323.1684112548828,434.22706604003906
149,323.66222381591797,434.2266082763672
150,324.17999267578125,434.2259216308594
151,324.6705627441406,434.2245864868164
152,325.17967224121094,434.22435760498047
153,325.6734085083008,434.2237854003906
154,326.1577606201172,434.22245025634766
155,326.67659759521484,434.2229461669922
156,327.1596145629883,434.22176361083984
157,327.6732635498047,434.2210388183594
158,328.1689453125,434.22080993652344
159,328.65989685058594,434.2197799682617
160,329.1800308227539,434.21863555908203
161,329.6704864501953,434.2185974121094
162,330.17276763916016,434.21802520751953
163,330.6725311279297,434.21749114990234
164,331.1569595336914,434.2181396484375
165,331.1611557006836,434.72103118896484
166,330.65399169921875,434.7227096557617
167,330.1521682739258,434.7224426269531
168,329.66888427734375,434.7227478027344
169,329.16149139404297,434.72232818603516
170,328.68080139160156,434.72240447998047
171,328.1582260131836,434.7224426269531
172,327.6649856567383,434.7221374511719
173,327.18536376953125,434.7218322753906
174,326.6822814941406,434.7218322753906
175,326.1913299560547,434.7220993041992
176,325.6562042236328,434.72179412841797
177,325.15079498291016,434.7221374511719
178,324.65511322021484,434.72171783447266
179,324.1628646850586,434.7221374511719
180,323.6711883544922,434.7220230102539
181,323.1719207763672,434.72206115722656
182,322.6636505126953,434.7221374511719
183,322.18639373779297,434.7215270996094
184,321.6805648803711,434.72171783447266
185,321.16146087646484,434.7214889526367
186,320.6571960449219,434.72137451171875
187,320.1512145996094,434.72129821777344
188,319.66358184814453,434.72137451171875
189,319.16093826293945,434.7215270996094
190,318.66235733032227,434.72164154052734
191,318.17426681518555,434.72129821777344
192,317.6593208312988,434.72137451171875
193,317.1820640563965,434.7210693359375
194,316.6623306274414,434.7207260131836
195,316.1325263977051,434.72057342529297
196,315.65181732177734,434.7206497192383
197,315.1503562927246,434.7201156616211
198,315.1585578918457,435.2455139160156
199,315.65404891967773,435.28594970703125
200,316.1442756652832,435.28499603271484
201,316.6577911376953,435.28160095214844
202,317.1527671813965,435.2783203125
203,317.6666831970215,435.26920318603516
204,318.1608772277832,435.25848388671875
205,318.65806579589844,435.25623321533203
206,319.1750717163086,435.2555465698242
207,319.6695327758789,435.2553176879883
208,320.1783752441406,435.2545928955078
209,320.66707611083984,435.2532958984375
210,321.1543655395508,435.25272369384766
211,321.67598724365234,435.2525329589844
212,322.16224670410156,435.25196075439453
213,322.67356872558594,435.25096893310547
214,323.1669616699219,435.2499771118164
215,323.6595916748047,435.24967193603516
216,324.1807556152344,435.24890899658203
217,324.6711730957031,435.24768829345703
218,325.1747512817383,435.24742126464844
219,325.6724548339844,435.2461242675781
220,326.15604400634766,435.24593353271484
221,326.6775131225586,435.24383544921875
222,327.1612548828125,435.2417755126953
223,327.6701354980469,435.23948669433594
224,328.1679916381836,435.2372360229492
225,328.66180419921875,435.23502349853516
226,329.18033599853516,435.20591735839844
227,329.6705627441406,435.2058792114258
228,330.17711639404297,435.2059555053711
229,330.67073822021484,435.2061462402344
230,331.15875244140625,435.206298828125
231,331.1581802368164,435.65418243408203
232,330.7046890258789,435.6503677368164
233,330.15167236328125,435.6632614135742
234,329.6664810180664,435.66627502441406
235,329.16202545166016,435.88001251220703
236,328.67305755615234,435.87474822998047
237,328.15868377685547,435.85575103759766
238,327.6656723022461,435.82813262939453
239,327.1810531616211,435.8219909667969
240,326.6754913330078,435.64014434814453
241,326.13075256347656,435.62198638916016
242,325.6624221801758,435.62572479248047
243,325.1537322998047,435.63087463378906
244,324.6574020385742,435.66349029541016
245,324.16561126708984,435.66417694091797
246,323.6785888671875,435.6645202636719
247,323.1753158569336,435.8549118041992
248,322.67017364501953,435.8888244628906
249,322.1809768676758,435.8572006225586
250,321.6795349121094,435.83335876464844
251,321.20201110839844,435.61817169189453
252,320.65731048583984,435.6184387207031
253,320.15220642089844,435.6206512451172
254,319.66222763061523,435.62244415283203
255,319.16107177734375,435.62671661376953
256,318.6723327636719,435.6325149536133
257,318.17291259765625,435.662841796875
258,317.66109466552734,435.6632614135742
259,317.17859268188477,435.67012786865234
260,316.68413162231445,435.8800506591797
261,316.1362075805664,435.8250427246094
262,315.6563186645508,435.81539154052734
263,315.15247344970703,435.6181335449219
264,315.1591491699219,436.1140441894531
265,315.65208435058594,436.1236572265625
266,316.1532783508301,436.36444091796875
267,316.65876388549805,436.3591003417969
268,317.1519470214844,436.34883880615234
269,317.6688575744629,436.3398742675781
270,318.16139221191406,436.18812561035156
271,318.6614799499512,436.18812561035156
272,319.1749382019043,436.1886978149414
273,319.6689987182617,436.1899948120117
274,320.1735305786133,436.19274139404297
275,320.67066192626953,436.1962890625
276,321.15501403808594,436.2043762207031
277,321.67469024658203,436.20800018310547
278,322.1604919433594,436.21837615966797
279,322.6692199707031,436.21864318847656
280,323.1695556640625,436.2190628051758
281,323.66092681884766,436.21910095214844
282,324.18148040771484,436.2188720703125
283,324.6704864501953,436.2191390991211
284,325.1799011230469,436.2190246582031
285,325.67317962646484,436.21856689453125
286,326.15550994873047,436.21849060058594
287,326.678466796875,436.2186813354492
288,327.1605682373047,436.21891021728516
289,327.6749038696289,436.21856689453125
290,328.1700134277344,436.21826171875
291,328.6622619628906,436.2188720703125
292,329.1802978515625,436.2190246582031
293,329.6696472167969,436.2190246582031
294,330.17974853515625,436.2192153930664
295,330.6734085083008,436.2187957763672
296,331.1570358276367,436.2188720703125
297,331.1557388305664,436.71142578125
298,330.66341400146484,436.73717498779297
299,330.1539993286133,436.7361068725586
300,329.66678619384766,436.7348098754883
301,329.1590881347656,436.7333984375
302,328.67725372314453,436.7329406738281
303,328.1747055053711,436.73187255859375
304,327.66136169433594,436.7315673828125
305,327.15763092041016,436.73107147216797
306,326.67911529541016,436.7300796508789
307,326.13658905029297,436.7282485961914
308,325.6612014770508,436.72752380371094
309,325.1529312133789,436.7267608642578
310,324.66827392578125,436.72657012939453
311,324.16259765625,436.7247772216797
312,323.6616516113281,436.7237091064453
313,323.17501068115234,436.7241668701172
314,322.6706314086914,436.7234802246094
315,322.18441009521484,436.72229766845703
316,321.6604232788086,436.7216491699219
317,321.1747741699219,436.7190170288086
318,320.6517028808594,436.71871185302734
319,320.1494598388672,436.71836853027344
320,319.65709686279297,436.71844482421875
321,319.1586685180664,436.71810150146484
322,318.6662292480469,436.71764373779297
323,318.1673240661621,436.71756744384766
324,317.6599311828613,436.7172622680664
325,317.1793556213379,436.7174530029297
326,316.6792678833008,436.7172622680664
327,316.17340087890625,436.7164993286133
328,315.65673828125,436.7169189453125
329,315.15188217163086,436.71661376953125
330,315.15851974487305,437.2623825073242
331,315.63676834106445,437.2649383544922
332,316.1467742919922,437.2629165649414
333,316.64794921875,437.25730895996094
334,317.14685440063477,437.2486877441406
335,317.6598930358887,437.2466278076172
336,318.1580352783203,437.24571228027344
337,318.660888671875,437.2444152832031
338,319.17484283447266,437.24422454833984
339,319.6665382385254,437.2425079345703
340,320.1786422729492,437.24220275878906
341,320.66837310791016,437.24109649658203
342,321.15467071533203,437.23976135253906
343,321.6740036010742,437.23899841308594
344,322.1595764160156,437.23846435546875
345,322.6659393310547,437.237548828125
346,323.1689453125,437.23724365234375
347,323.6592102050781,437.23628997802734
348,324.1792678833008,437.23533630371094
349,324.6702194213867,437.2348403930664
350,325.1739501953125,437.23358154296875
351,325.67333221435547,437.2330856323242
352,326.15760803222656,437.2322082519531
353,326.6769790649414,437.23194122314453
354,327.1609115600586,437.2314453125
355,327.67330169677734,437.2309112548828
356,328.16917419433594,437.2294235229492
357,328.6623001098633,437.22843170166016
358,329.18113708496094,437.22755432128906
359,329.6694564819336,437.2254943847656
360,330.1789855957031,437.22171783447266
361,330.6713104248047,437.2163772583008
362,331.15718841552734,437.21580505371094
363,331.1887741088867,437.6675796508789
364,330.73619842529297,438.32054138183594
365,330.230712890625,437.97119140625
366,329.6923065185547,437.9690170288086
367,329.1719436645508,437.70782470703125
368,328.7076187133789,437.7082061767578
369,328.1834411621094,437.7079391479492
370,327.68470764160156,437.70809173583984
371,327.17700958251953,437.7083969116211
372,326.6853713989258,437.70774841308594
373,326.1363220214844,437.7091979980469
374,325.65563201904297,437.7092742919922
375,325.1523208618164,437.7094268798828
376,324.66724395751953,437.7089309692383
377,324.16072845458984,437.7093505859375
378,323.66878509521484,437.7095413208008
379,323.1724166870117,437.70946502685547
380,322.66571044921875,437.7090072631836
381,322.18170166015625,437.7095413208008
382,321.661376953125,437.7094268798828
383,321.13685607910156,437.7096176147461
384,320.65441131591797,437.7101135253906
385,320.15323638916016,437.7105712890625
386,319.66833114624023,437.7104187011719
387,319.16467666625977,437.71060943603516
388,318.67786407470703,437.71095275878906
389,318.17665100097656,437.7114486694336
390,317.6615333557129,437.7116394042969
391,317.18605041503906,437.71202087402344
392,316.6802787780762,437.7118682861328
393,316.1370277404785,437.7124786376953
394,315.6564712524414,437.7132034301758
395,315.15832901000977,437.7134704589844
396,315.1613998413086,438.1692886352539
397,315.6304931640625,438.1743621826172
398,316.15278244018555,438.36414337158203
399,316.6586685180664,438.3625793457031
400,317.15368270874023,438.3566665649414
401,317.6690864562988,438.32996368408203
402,318.15927505493164,438.3232116699219
403,318.6631774902344,438.3007049560547
404,319.1764259338379,438.1189727783203
405,319.6683692932129,438.11946868896484
406,320.17704010009766,438.12145233154297
407,320.67039489746094,438.1237030029297
408,321.1527633666992,438.12767028808594
409,321.67701721191406,438.13232421875
410,322.1607971191406,438.16158294677734
411,322.6729965209961,438.16654205322266
412,323.1684875488281,438.17710876464844
413,323.65726470947266,438.3782196044922
414,324.1812515258789,438.3699417114258
415,324.6708679199219,438.35811614990234
416,325.1774597167969,438.32969665527344
417,325.6712341308594,438.3223342895508
418,326.15650177001953,438.20682525634766
419,326.67858123779297,438.1184387207031
420,327.16068267822266,438.1190872192383
421,327.6735305786133,438.12137603759766
422,328.1684112548828,438.12450408935547
423,328.6595153808594,438.1266403198242
424,329.1792678833008,438.1317138671875
425,329.6720504760742,438.16577911376953
426,330.17486572265625,438.16551208496094
427,330.6712341308594,438.2070541381836
428,331.1563491821289,438.37562561035156
429,331.19083404541016,438.7256622314453
430,330.7331085205078,438.7248229980469
431,330.2301788330078,438.7236785888672
432,329.6921157836914,438.72325897216797
433,329.1796875,438.72276306152344
434,328.7074279785156,438.721923828125
435,328.1770706176758,438.72108459472656
436,327.68829345703125,438.7196731567383
437,327.18997955322266,438.71971130371094
438,326.68209075927734,438.71849060058594
439,326.13616943359375,438.7166976928711
440,325.654296875,438.71612548828125
441,325.15003204345703,438.71570587158203
442,324.65641021728516,438.7149429321289
443,324.1590881347656,438.7144088745117
444,323.6713409423828,438.7144470214844
445,323.1707000732422,438.7144088745117
446,322.6544189453125,438.7144470214844
447,322.18021392822266,438.7141799926758
448,321.6775131225586,438.7144470214844
449,321.129150390625,438.71395111083984
450,320.6594467163086,438.71395111083984
451,320.1521682739258,438.71429443359375
452,319.67050552368164,438.7147903442383
453,319.15904998779297,438.71463775634766
454,318.67977142333984,438.7142562866211
455,318.17317962646484,438.7141418457031
456,317.65811920166016,438.71410369873047
457,317.1869468688965,438.71429443359375
458,316.6754341125488,438.7142562866211
459,316.2030220031738,438.7150192260742
460,315.6521987915039,438.7150192260742
461,315.1518440246582,438.71471405029297
462,315.15968322753906,439.2610168457031
463,315.6507873535156,439.23580169677734
464,316.14816665649414,439.2356872558594
465,316.646728515625,439.2346954345703
466,317.1499824523926,439.23377990722656
467,317.66210556030273,439.23343658447266
468,318.15574645996094,439.23267364501953
469,318.66289138793945,439.23248291015625
470,319.1695022583008,439.2317581176758
471,319.6680450439453,439.2311477661133
472,320.1786804199219,439.2301940917969
473,320.6688690185547,439.2300033569336
474,321.15394592285156,439.2299270629883
475,321.67308807373047,439.2289733886719
476,322.16075897216797,439.2278289794922
477,322.67162322998047,439.2275619506836
