Serpentine Scan Parameters
X Total Distance (mm),16
Y Total Distance (mm),16
Step Size (mm),0.5
Start from Center,True

Step Number,X Position (mm),Y Position (mm)
0,315.1582336425781,432.3011779785156
1,315.68042755126953,432.3937225341797
2,316.16004943847656,432.3904800415039
3,316.6560363769531,432.38685607910156
4,317.16604232788086,432.3844528198242
5,317.65819549560547,432.38258361816406
6,318.1776809692383,432.38197326660156
7,318.66323471069336,432.38101959228516
8,319.16595458984375,432.37979888916016
9,319.67472076416016,432.3784637451172
10,320.1664733886719,432.37796783447266
11,320.68363189697266,432.3774719238281
12,321.16504669189453,432.3765182495117
13,321.65557861328125,432.37545013427734
14,322.17220306396484,432.37525939941406
15,322.6609420776367,432.37491607666016
16,323.1789779663086,432.3749542236328
17,323.6637878417969,432.37396240234375
18,324.1734313964844,432.37327575683594
19,324.6786880493164,432.3728561401367
20,325.16910552978516,432.3721694946289
21,325.684814453125,432.371826171875
22,326.16661071777344,432.37144470214844
23,326.6590118408203,432.3712158203125
24,327.17201232910156,432.37064361572266
25,327.6646041870117,432.36976623535156
26,328.17989349365234,432.3694610595703
27,328.6650848388672,432.3688507080078
28,329.1685485839844,432.3683166503906
29,329.67811584472656,432.3674774169922
30,330.16857147216797,432.3673629760742
31,330.6834411621094,432.3664855957031
32,331.1647033691406,432.36602783203125
33,331.16920471191406,432.89161682128906
34,330.6621551513672,432.83935546875
35,330.1875686645508,432.8399658203125
36,329.66548919677734,432.8401184082031
37,329.1858673095703,432.84034729003906
38,328.6780548095703,432.84034729003906
39,328.1644821166992,432.8407669067383
40,327.6936340332031,432.84088134765625
41,327.1856689453125,432.8412628173828
42,326.6448974609375,432.8418731689453
43,326.1832809448242,432.84202575683594
44,325.6719970703125,432.8423309326172
45,325.18566131591797,432.84324645996094
46,324.674072265625,432.84366607666016
47,324.15443420410156,432.8439712524414
48,323.66825103759766,432.84393310546875
49,323.15563201904297,432.84454345703125
50,322.6900100708008,432.84549713134766
51,322.17945098876953,432.84568786621094
52,321.6451644897461,432.8459930419922
53,321.1750030517578,432.84610748291016
54,320.6650161743164,432.84656524658203
55,320.18028259277344,432.84637451171875
56,319.6780014038086,432.8470993041992
57,319.1784477233887,432.8475570678711
58,318.67950439453125,432.8474807739258
59,318.16158294677734,432.84801483154297
60,317.6502990722656,432.8483581542969
61,317.18109130859375,432.84828186035156
62,316.6431999206543,432.8489685058594
63,316.17366790771484,432.84915924072266
64,315.661678314209,432.8490447998047
65,315.18016815185547,432.84912109375
66,315.15037536621094,433.36734771728516
67,315.64950942993164,433.36719512939453
68,316.1656188964844,433.3665084838867
69,316.65760040283203,433.3656692504883
70,317.17098236083984,433.36585998535156
71,317.6606750488281,433.3659362792969
72,318.18016052246094,433.3656692504883
73,318.66247177124023,433.3648681640625
74,319.1672134399414,433.36475372314453
75,319.6780586242676,433.36483001708984
76,320.1689910888672,433.36429595947266
77,320.6808090209961,433.36360931396484
78,321.1677932739258,433.3633804321289
79,321.6559600830078,433.36292266845703
80,322.1729278564453,433.363037109375
81,322.66090393066406,433.36254119873047
82,323.1770324707031,433.36158752441406
83,323.6635971069336,433.3608627319336
84,324.16637420654297,433.3601379394531
85,324.6791076660156,433.35826873779297
86,325.16735076904297,433.3584213256836
87,325.6842803955078,433.35758209228516
88,326.1648941040039,433.35731506347656
89,326.6578674316406,433.3563995361328
90,327.1717834472656,433.3547592163086
91,327.6603317260742,433.3540344238281
92,328.17867279052734,433.3530044555664
93,328.66455078125,433.3523178100586
94,329.1668701171875,433.35216522216797
95,329.6778106689453,433.3506774902344
96,330.16796112060547,433.3500289916992
97,330.68519592285156,433.34922790527344
98,331.16512298583984,433.34911346435547
99,331.16580963134766,433.81309509277344
100,330.66162109375,433.89060974121094
101,330.1875305175781,433.88633728027344
102,329.664306640625,433.8831329345703
103,329.1853332519531,433.87035369873047
104,328.67950439453125,433.8679504394531
105,328.16219329833984,433.86653900146484
106,327.68943786621094,433.86566162109375
107,327.1894836425781,433.8644790649414
108,326.65149688720703,433.8626480102539
109,326.1738967895508,433.8612365722656
110,325.6565856933594,433.8611602783203
111,325.18199920654297,433.86077880859375
112,324.6741485595703,433.85986328125
113,324.17198181152344,433.85974884033203
114,323.65440368652344,433.8591766357422
115,323.16162109375,433.8577651977539
116,322.6761245727539,433.8577651977539
117,322.1812438964844,433.8576889038086
118,321.64318084716797,433.8562774658203
119,321.1743927001953,433.8557434082031
120,320.66822052001953,433.85498046875
121,320.18577575683594,433.85494232177734
122,319.6883773803711,433.85448455810547
123,319.16582107543945,433.8541030883789
124,318.682804107666,433.8536834716797
125,318.16402435302734,433.85406494140625
126,317.6892280578613,433.85364532470703
127,317.1820068359375,433.8529586791992
128,316.63671493530273,433.8525390625
129,316.17469787597656,433.85196685791016
130,315.6680679321289,433.85215759277344
131,315.1839828491211,433.85215759277344
132,315.15052795410156,434.3769836425781
133,315.6221389770508,434.3758010864258
134,316.16249084472656,434.3754577636719
135,316.65565490722656,434.37450408935547
136,317.1651268005371,434.3727111816406
137,317.65872955322266,434.37217712402344
138,318.17920684814453,434.3715286254883
139,318.6619567871094,434.36988830566406
140,319.16643142700195,434.3688201904297
141,319.6780586242676,434.3677520751953
142,320.1669692993164,434.36790466308594
143,320.6828308105469,434.3666458129883
144,321.16668701171875,434.3658447265625
145,321.65687561035156,434.3655776977539
146,322.1724319458008,434.3650817871094
147,322.65804290771484,434.36397552490234
148,323.1787109375,434.3636703491211
149,323.6662292480469,434.3628692626953
150,324.16553497314453,434.36222076416016
151,324.6763229370117,434.36187744140625
152,325.16834259033203,434.36168670654297
153,325.68504333496094,434.3606948852539
154,326.1663818359375,434.3601989746094
155,326.65828704833984,434.35951232910156
156,327.1725082397461,434.35935974121094
157,327.6601028442383,434.35840606689453
158,328.1797409057617,434.3578338623047
159,328.6627197265625,434.3571472167969
160,329.1671371459961,434.3563461303711
161,329.67761993408203,434.3557357788086
162,330.1678466796875,434.35352325439453
163,330.6830596923828,434.3531036376953
164,331.16363525390625,434.35279846191406
165,331.1656951904297,434.87884521484375
166,330.6613540649414,434.87743377685547
167,330.1906204223633,434.87762451171875
168,329.6739959716797,434.8766326904297
169,329.1847610473633,434.87701416015625
170,328.67671966552734,434.8761749267578
171,328.15624237060547,434.87548828125
172,327.6915740966797,434.8748016357422
173,327.1772766113281,434.8746871948242
174,326.6733932495117,434.87361907958984
175,326.18255615234375,434.87266540527344
176,325.6695556640625,434.8720169067383
177,325.19805908203125,434.87144470214844
178,324.66739654541016,434.8712921142578
179,324.17675018310547,434.87049102783203
180,323.6870574951172,434.86968994140625
181,323.1733703613281,434.86854553222656
182,322.64896392822266,434.8686218261719
183,322.17994689941406,434.86743927001953
184,321.63490295410156,434.8659133911133
185,321.1507034301758,434.86515045166016
186,320.6636428833008,434.86480712890625
187,320.1844024658203,434.8643112182617
188,319.6769332885742,434.86358642578125
189,319.1607666015625,434.8628234863281
190,318.68003845214844,434.86270904541016
191,318.1663513183594,434.86194610595703
192,317.68407821655273,434.86183166503906
193,317.1762466430664,434.8613739013672
194,316.6714859008789,434.85923767089844
195,316.1686706542969,434.8575210571289
196,315.65792083740234,434.8360824584961
197,315.14795303344727,434.8358917236328
198,315.1486587524414,435.3650665283203
199,315.6827163696289,435.4042053222656
200,316.1627960205078,435.4024124145508
201,316.6642379760742,435.4001235961914
202,317.17193603515625,435.3901672363281
203,317.65892028808594,435.38822174072266
204,318.17949295043945,435.38570404052734
205,318.66329193115234,435.3842544555664
206,319.1648483276367,435.38124084472656
207,319.67803955078125,435.3805160522461
208,320.16910552978516,435.3797149658203
209,320.68504333496094,435.3786849975586
210,321.16710662841797,435.37757873535156
211,321.6554641723633,435.37731170654297
212,322.17159271240234,435.37662506103516
213,322.6597213745117,435.37567138671875
214,323.1806182861328,435.3756332397461
215,323.6630630493164,435.374755859375
216,324.16797637939453,435.3738784790039
217,324.6784210205078,435.37384033203125
218,325.1689910888672,435.37269592285156
219,325.6843948364258,435.37158966064453
220,326.1647033691406,435.3704833984375
221,326.6574478149414,435.3688049316406
222,327.17308044433594,435.3675842285156
223,327.65968322753906,435.36537170410156
224,328.1745910644531,435.3643798828125
225,328.6639404296875,435.3630828857422
226,329.1681671142578,435.3578567504883
227,329.67742919921875,435.34873962402344
228,330.16834259033203,435.34812927246094
229,330.6853485107422,435.3479766845703
230,331.1666488647461,435.34786224365234
231,331.1684799194336,435.82820892333984
232,330.66123962402344,435.8289337158203
233,330.18699645996094,435.8290481567383
234,329.6834945678711,435.8290100097656
235,329.1865539550781,435.8297348022461
236,328.6850357055664,435.8304977416992
237,328.16436767578125,435.8309555053711
238,327.684326171875,435.83187103271484
239,327.1814727783203,435.83229064941406
240,326.6790008544922,435.83404541015625
241,326.1707305908203,435.836181640625
242,325.6565475463867,435.83763122558594
243,325.1821517944336,435.8392333984375
244,324.67395782470703,435.83995819091797
245,324.1700744628906,435.8432388305664
246,323.65386962890625,435.8447265625
247,323.15574645996094,435.8489227294922
248,322.68714904785156,435.8530044555664
249,322.18780517578125,435.85338592529297
250,321.6427993774414,435.85472106933594
251,321.1820983886719,435.8545684814453
252,320.6684112548828,435.85540771484375
253,320.1890563964844,435.8546829223633
254,319.6728515625,435.85506439208984
255,319.1856384277344,435.8552551269531
256,318.6812210083008,435.85506439208984
257,318.1610107421875,435.85506439208984
258,317.68972396850586,435.8554458618164
259,317.18189239501953,435.8549499511719
260,316.6427230834961,435.85460662841797
261,316.1769104003906,435.8546447753906
262,315.6629943847656,435.8549118041992
263,315.18238067626953,435.8548355102539
264,315.1498222351074,436.36878967285156
265,315.6856346130371,436.3667678833008
266,316.1669921875,436.36608123779297
267,316.66629791259766,436.3657760620117
268,317.17227935791016,436.36425018310547
269,317.6597023010254,436.3637924194336
270,318.1794548034668,436.36322021484375
271,318.66641998291016,436.36192321777344
272,319.1661834716797,436.3615036010742
273,319.6773338317871,436.36112213134766
274,320.1725769042969,436.36043548583984
275,320.68267822265625,436.35955810546875
276,321.1663055419922,436.35852813720703
277,321.6615295410156,436.35841369628906
278,322.1715545654297,436.3577651977539
279,322.66319274902344,436.3571548461914
280,323.1768035888672,436.3569641113281
281,323.6642837524414,436.3569641113281
282,324.1663360595703,436.35643005371094
283,324.6778869628906,436.3560104370117
284,325.1676559448242,436.35547637939453
285,325.6821823120117,436.35536193847656
286,326.1661911010742,436.3547134399414
287,326.6584014892578,436.3543701171875
288,327.1722412109375,436.35414123535156
289,327.65926361083984,436.3532257080078
290,328.1804656982422,436.3533401489258
291,328.6653137207031,436.3541793823242
292,329.16534423828125,436.3533401489258
293,329.6754455566406,436.3528060913086
294,330.1673126220703,436.3523864746094
295,330.6858444213867,436.3520050048828
296,331.16485595703125,436.3518524169922
297,331.1670684814453,436.8755340576172
298,330.6612777709961,436.87400817871094
299,330.1865005493164,436.8731689453125
300,329.6818161010742,436.87259674072266
301,329.18975830078125,436.8717575073242
302,328.67637634277344,436.87095642089844
303,328.16761016845703,436.87007904052734
304,327.69569396972656,436.8688201904297
305,327.1768569946289,436.8674087524414
306,326.64398193359375,436.8655014038086
307,326.1888885498047,436.8648147583008
308,325.6712341308594,436.86363220214844
309,325.2035140991211,436.8629837036133
310,324.6742630004883,436.86241149902344
311,324.1761016845703,436.86126708984375
312,323.6751937866211,436.86092376708984
313,323.1652069091797,436.86012268066406
314,322.6976013183594,436.8600082397461
315,322.17735290527344,436.8595504760742
316,321.639404296875,436.85855865478516
317,321.18656158447266,436.85787200927734
318,320.65879821777344,436.8575668334961
319,320.18672943115234,436.8575668334961
320,319.6809959411621,436.85672760009766
321,319.1851234436035,436.85657501220703
322,318.67969512939453,436.8556213378906
323,318.16905975341797,436.85585021972656
324,317.6887321472168,436.85543060302734
325,317.18109130859375,436.85482025146484
326,316.6999626159668,436.85325622558594
327,316.17746353149414,436.8528747558594
328,315.6657409667969,436.8522262573242
329,315.1743698120117,436.85150146484375
330,315.15113830566406,437.340087890625
331,315.6204032897949,437.40291595458984
332,316.14294052124023,437.4018859863281
333,316.6570472717285,437.3991012573242
334,317.1572494506836,437.38170623779297
335,317.65329360961914,437.38101959228516
336,318.16844940185547,437.38048553466797
337,318.6598587036133,437.37945556640625
338,319.1592025756836,437.37857818603516
339,319.6730613708496,437.3781967163086
340,320.1670455932617,437.3772430419922
341,320.6819152832031,437.37701416015625
342,321.1659622192383,437.3761749267578
343,321.656494140625,437.3753356933594
344,322.16739654541016,437.37525939941406
345,322.6593017578125,437.37396240234375
346,323.17832946777344,437.37415313720703
347,323.66397857666016,437.3733139038086
348,324.16404724121094,437.3723602294922
349,324.6781921386719,437.37178802490234
350,325.1683807373047,437.37186431884766
351,325.68470001220703,437.3712921142578
352,326.16565704345703,437.3710250854492
353,326.6576385498047,437.3705291748047
354,327.17151641845703,437.37003326416016
355,327.6599884033203,437.369384765625
356,328.1786346435547,437.36846923828125
357,328.6642837524414,437.3678970336914
358,329.16748046875,437.36698150634766
359,329.6775817871094,437.36663818359375
360,330.1731872558594,437.3660659790039
361,330.6846618652344,437.36572265625
362,331.165771484375,437.36515045166016
363,331.16687774658203,437.8177261352539
364,330.66192626953125,437.91526794433594
365,330.1720428466797,437.9146957397461
366,329.6734619140625,437.91370391845703
367,329.18113708496094,437.9121398925781
368,328.6827850341797,437.90828704833984
369,328.17474365234375,437.90599822998047
370,327.6740264892578,437.8995895385742
371,327.1836471557617,437.8893280029297
372,326.6426086425781,437.8837203979492
373,326.15856170654297,437.8826904296875
374,325.6678771972656,437.8807830810547
375,325.20301818847656,437.8800964355469
376,324.6835708618164,437.8791046142578
377,324.16839599609375,437.87803649902344
378,323.68114471435547,437.87750244140625
379,323.1644821166992,437.87662506103516
380,322.68470764160156,437.87609100341797
381,322.1798324584961,437.8757095336914
382,321.64337158203125,437.87403106689453
383,321.1838912963867,437.8736114501953
384,320.66593170166016,437.8727722167969
385,320.14892578125,437.8715133666992
386,319.6753120422363,437.87109375
387,319.18357849121094,437.86956787109375
388,318.6812400817871,437.8672790527344
389,318.16402435302734,437.8664779663086
390,317.6772689819336,437.8638458251953
391,317.18212127685547,437.8612518310547
392,316.70169830322266,437.84130096435547
393,316.1663818359375,437.8411865234375
394,315.6608009338379,437.8412628173828
395,315.16448974609375,437.8409957885742
396,315.15106201171875,438.3252716064453
397,315.62015533447266,438.32427978515625
398,316.14145278930664,438.32469940185547
399,316.6588592529297,438.3242416381836
400,317.1570014953613,438.3253479003906
401,317.6548194885254,438.3258056640625
402,318.1699752807617,438.3259582519531
403,318.6593818664551,438.3266067504883
404,319.1683006286621,438.3272933959961
405,319.6709442138672,438.3280944824219
406,320.1645278930664,438.3290100097656
407,320.6809997558594,438.33080291748047
408,321.16214752197266,438.33213806152344
409,321.6569519042969,438.3338928222656
410,322.1696090698242,438.33518981933594
411,322.65804290771484,438.33702087402344
412,323.1770706176758,438.33953857421875
413,323.66588592529297,438.3409881591797
414,324.1623306274414,438.3430862426758
415,324.67662811279297,438.3540344238281
416,325.1675033569336,438.3554458618164
417,325.68504333496094,438.35533142089844
418,326.1655807495117,438.3555603027344
419,326.6553497314453,438.3552932739258
420,327.1723937988281,438.3552932739258
421,327.65899658203125,438.35498809814453
422,328.1787109375,438.3553695678711
423,328.663330078125,438.3557891845703
424,329.1675567626953,438.3552551269531
425,329.67891693115234,438.35540771484375
426,330.16780853271484,438.35559844970703
427,330.68572998046875,438.35487365722656
428,331.1653137207031,438.35533142089844
429,331.16607666015625,438.8814926147461
430,330.6608581542969,438.8702392578125
431,330.1898956298828,438.86768341064453
432,329.67620849609375,438.8669204711914
433,329.1455841064453,438.8656997680664
434,328.68797302246094,438.86512756347656
435,328.1665802001953,438.86417388916016
436,327.68863677978516,438.86287689208984
437,327.18135833740234,438.8623809814453
438,326.6923141479492,438.8611602783203
439,326.1785888671875,438.8600158691406
440,325.6669235229492,438.86024475097656
441,325.18733978271484,438.85936737060547
442,324.67777252197266,438.8592529296875
443,324.1719436645508,438.858642578125
444,323.68091583251953,438.85807037353516
445,323.16341400146484,438.8575744628906
446,322.6917266845703,438.85669708251953
447,322.1788024902344,438.85658264160156
448,321.6436004638672,438.8554000854492
449,321.163330078125,438.8552474975586
450,320.6711196899414,438.85433197021484
451,320.19676208496094,438.85425567626953
452,319.677734375,438.8541030883789
453,319.1768455505371,438.85372161865234
454,318.6757469177246,438.8536071777344
455,318.1621551513672,438.8526153564453
456,317.6907539367676,438.8526916503906
457,317.17947006225586,438.8520812988281
458,316.7032241821289,438.85189056396484
459,316.1669158935547,438.85169982910156
460,315.6598663330078,438.85128021240234
461,315.14739990234375,438.85181427001953
462,315.1486587524414,439.3782424926758
463,315.6830024719238,439.3754196166992
464,316.16668701171875,439.3747329711914
465,316.654052734375,439.37374114990234
466,317.16835021972656,439.37255859375
467,317.65987396240234,439.3714141845703
468,318.1787872314453,439.37049865722656
469,318.66329193115234,439.36920166015625
470,319.1617012023926,439.3681335449219
471,319.67700958251953,439.3679428100586
472,320.1686096191406,439.36695098876953
473,320.6855010986328,439.3663024902344
474,321.16615295410156,439.36580657958984
475,321.65916442871094,439.36485290527344
476,322.17273712158203,439.36431884765625
477,322.6603698730469,439.36412811279297
