Serpentine Scan Parameters
X Total Distance (mm),16
Y Total Distance (mm),16
Step Size (mm),0.5
Start from Center,True

Step Number,X Position (mm),Y Position (mm)
0,315.14209747314453,432.4979019165039
1,315.67413330078125,432.49217987060547
2,316.1648941040039,432.4917984008789
3,316.66576385498047,432.49202728271484
4,317.16758728027344,432.4916458129883
5,317.65628814697266,432.49210357666016
6,318.1677055358887,432.4913787841797
7,318.6579132080078,432.49088287353516
8,319.1611099243164,432.49053955078125
9,319.6664047241211,432.4905776977539
10,320.1591110229492,432.4894714355469
11,320.67481994628906,432.48905181884766
12,321.1650848388672,432.4892044067383
13,321.66622161865234,432.4882125854492
14,322.1674346923828,432.4882507324219
15,322.6555633544922,432.48767852783203
16,323.1687927246094,432.48756408691406
17,323.65840911865234,432.48680114746094
18,324.1615676879883,432.4866485595703
19,324.66552734375,432.4869918823242
20,325.15819549560547,432.486572265625
21,325.6764602661133,432.48592376708984
22,326.16764068603516,432.4859619140625
23,326.6650390625,432.4852752685547
24,327.16922760009766,432.4855422973633
25,327.65846252441406,432.4848937988281
26,328.1690216064453,432.4843215942383
27,328.6579895019531,432.48485565185547
28,329.1613006591797,432.48435974121094
29,329.66644287109375,432.4843215942383
30,330.1578903198242,432.4837112426758
31,330.6759262084961,432.4838638305664
32,331.16432189941406,432.48348236083984
33,331.1713409423828,433.0003356933594
34,330.71502685546875,432.9764175415039
35,330.21148681640625,432.97672271728516
36,329.69608306884766,432.97664642333984
37,329.1526794433594,432.97657012939453
38,328.61427307128906,432.97611236572266
39,328.1557083129883,432.9766082763672
40,327.6946258544922,432.97672271728516
41,327.1522903442383,432.9761505126953
42,326.6514205932617,432.97645568847656
43,326.12979888916016,432.9769515991211
44,325.6664276123047,432.97691345214844
45,325.2052688598633,432.97645568847656
46,324.6883010864258,432.9764175415039
47,324.1699981689453,432.97645568847656
48,323.612060546875,432.9764938354492
49,323.1483840942383,432.97584533691406
50,322.6887512207031,432.9765319824219
51,322.1315002441406,432.97645568847656
52,321.63124084472656,432.9759979248047
53,321.15760803222656,432.97603607177734
54,320.66341400146484,432.97645568847656
55,320.1176452636719,432.97645568847656
56,319.6649360656738,432.97603607177734
57,319.13183212280273,432.97630310058594
58,318.60973358154297,432.97657012939453
59,318.15412521362305,432.97595977783203
60,317.6102828979492,432.97657012939453
61,317.1467590332031,432.97664642333984
62,316.6358947753906,432.97607421875
63,316.1720657348633,432.9763412475586
64,315.6664276123047,432.9766082763672
65,315.12367248535156,432.9755401611328
66,315.1255798339844,433.46195220947266
67,315.6356430053711,433.5158157348633
68,316.136474609375,433.51539611816406
69,316.6504096984863,433.51417541503906
70,317.1377182006836,433.5118865966797
71,317.63444900512695,433.51070404052734
72,318.15757751464844,433.5091781616211
73,318.6491584777832,433.5069274902344
74,319.16019439697266,433.5045623779297
75,319.6625518798828,433.49853515625
76,320.1522445678711,433.4528350830078
77,320.673828125,433.4530258178711
78,321.1625671386719,433.4532165527344
79,321.6649627685547,433.45401763916016
80,322.1673583984375,433.4550476074219
81,322.65743255615234,433.4552764892578
82,323.1667709350586,433.4562301635742
83,323.65779876708984,433.4572219848633
84,324.16072845458984,433.45741271972656
85,324.6652603149414,433.4587097167969
86,325.15777587890625,433.45909118652344
87,325.6773376464844,433.4595489501953
88,326.16771697998047,433.4603500366211
89,326.66751861572266,433.4613037109375
90,327.1684265136719,433.46168518066406
91,327.6582336425781,433.4627151489258
92,328.16741943359375,433.4635925292969
93,328.66016387939453,433.4634780883789
94,329.16027069091797,433.4642028808594
95,329.66678619384766,433.46446990966797
96,330.15804290771484,433.4648895263672
97,330.67630767822266,433.4657287597656
98,331.16790771484375,433.4658432006836
99,331.1688232421875,433.9766311645508
100,330.6844711303711,433.93775939941406
101,330.2128219604492,433.9596939086914
102,329.6961212158203,433.95984649658203
103,329.14783477783203,433.96411895751953
104,328.69407653808594,433.96690368652344
105,328.1366729736328,433.9677047729492
106,327.618408203125,433.9677429199219
107,327.11769104003906,433.9706802368164
108,326.6276168823242,433.9712142944336
109,326.12842559814453,433.97167205810547
110,325.65460205078125,433.97239685058594
111,325.1854705810547,433.9719772338867
112,324.6437072753906,433.9735412597656
113,324.1310119628906,433.9741516113281
114,323.6117172241211,433.9746856689453
115,323.14796447753906,433.97464752197266
116,322.69779205322266,433.97422790527344
117,322.1880340576172,433.97457122802734
118,321.66587829589844,433.9750289916992
119,321.1298370361328,433.9753723144531
120,320.6654739379883,433.9747619628906
121,320.2058792114258,433.9750289916992
122,319.69093322753906,433.9750289916992
123,319.16332244873047,433.9748764038086
124,318.6262512207031,433.97518157958984
125,318.1510925292969,433.9747619628906
126,317.61558532714844,433.9754104614258
127,317.154598236084,433.97510528564453
128,316.6524124145508,433.9752960205078
129,316.1821746826172,433.9752960205078
130,315.67283630371094,433.9751434326172
131,315.2021789550781,433.97533416748047
132,315.20227432250977,434.52091217041016
133,315.6512451171875,434.5585632324219
134,316.1474609375,434.5556640625
135,316.66439056396484,434.54952239990234
136,317.1635437011719,434.3597412109375
137,317.65281677246094,434.35413360595703
138,318.165283203125,434.35699462890625
139,318.6538887023926,434.37957763671875
140,319.15977478027344,434.38758850097656
141,319.66495513916016,434.4086456298828
142,320.1554489135742,434.5085144042969
143,320.67378997802734,434.50817108154297
144,321.1672592163086,434.5075988769531
145,321.66709899902344,434.5074462890625
146,322.17010498046875,434.50706481933594
147,322.65552520751953,434.5066452026367
148,323.1672668457031,434.50511932373047
149,323.65856170654297,434.5042419433594
150,324.1599655151367,434.50252532958984
151,324.66625213623047,434.5004653930664
152,325.15697479248047,434.49832916259766
153,325.675048828125,434.49546813964844
154,326.16729736328125,434.4802474975586
155,326.6660690307617,434.4803237915039
156,327.16869354248047,434.47975158691406
157,327.65682220458984,434.4791030883789
158,328.17100524902344,434.4792938232422
159,328.6570358276367,434.4788360595703
160,329.1617202758789,434.4793701171875
161,329.6663284301758,434.4784927368164
162,330.1592254638672,434.4784164428711
163,330.6755828857422,434.47818756103516
164,331.1677932739258,434.47731018066406
165,331.16939544677734,435.0093078613281
166,330.6680679321289,434.99603271484375
167,330.21278381347656,434.9945831298828
168,329.69959259033203,434.9941635131836
169,329.1722869873047,434.9933624267578
170,328.62342834472656,434.9905776977539
171,328.1538772583008,434.98992919921875
172,327.6927185058594,434.9891662597656
173,327.1809387207031,434.9889373779297
174,326.6852569580078,434.98790740966797
175,326.12953186035156,434.9877166748047
176,325.6641387939453,434.98687744140625
177,325.2074432373047,434.98653411865234
178,324.6922302246094,434.9864959716797
179,324.1681671142578,434.9856948852539
180,323.61156463623047,434.9850845336914
181,323.1508255004883,434.98416900634766
182,322.6845932006836,434.98374938964844
183,322.1521759033203,434.98355865478516
184,321.65966033935547,434.9832534790039
185,321.16756439208984,434.9829864501953
186,320.66741943359375,434.9829864501953
187,320.1259231567383,434.98226165771484
188,319.6293830871582,434.98207092285156
189,319.1315269470215,434.98165130615234
190,318.6806869506836,434.9813461303711
191,318.1510925292969,434.98104095458984
192,317.6191711425781,434.98077392578125
193,317.1578598022461,434.9800491333008
194,316.65889739990234,434.98008728027344
195,316.12903594970703,434.9803161621094
196,315.6641387939453,434.97989654541016
197,315.20774841308594,434.9799346923828
198,315.1279067993164,435.43426513671875
199,315.64544677734375,435.3338623046875
200,316.14139556884766,435.34923553466797
201,316.6584777832031,435.3540802001953
202,317.15503692626953,435.35816192626953
203,317.6460266113281,435.36266326904297
204,318.1599807739258,435.3681945800781
205,318.6490249633789,435.3902053833008
206,319.15964126586914,435.3937530517578
207,319.66304779052734,435.3981399536133
208,320.15663146972656,435.40172576904297
209,320.67359924316406,435.40775299072266
210,321.1631393432617,435.8794403076172
211,321.66534423828125,435.81356048583984
212,322.1685791015625,435.6252670288086
213,322.6570510864258,435.47801971435547
214,323.16505432128906,435.4781723022461
215,323.6591339111328,435.47801971435547
216,324.1609573364258,435.47863006591797
217,324.66644287109375,435.4779815673828
218,325.15743255615234,435.4782485961914
219,325.67493438720703,435.47794342041016
220,326.17000579833984,435.4774475097656
221,326.66698455810547,435.4783630371094
222,327.1688461303711,435.4781723022461
223,327.6570129394531,435.4777145385742
224,328.1676483154297,435.4777526855469
225,328.6592102050781,435.47779083251953
226,329.16149139404297,435.47821044921875
227,329.6659851074219,435.4779815673828
228,330.15865325927734,435.47786712646484
229,330.67535400390625,435.4779052734375
230,331.1669921875,435.4781723022461
231,331.16737365722656,435.9907531738281
232,330.7040786743164,436.00582122802734
233,330.21095275878906,436.0054016113281
234,329.69696044921875,436.0048294067383
235,329.14695739746094,435.9550476074219
236,328.66920471191406,435.9597396850586
237,328.14064025878906,435.9602737426758
238,327.67120361328125,435.96336364746094
239,327.15431213378906,435.96336364746094
240,326.65462493896484,435.9639358520508
241,326.18438720703125,435.96458435058594
242,325.66844940185547,435.96527099609375
243,325.20294189453125,435.9653854370117
244,324.6823501586914,435.96553802490234
245,324.1324996948242,435.96630096435547
246,323.63075256347656,435.9689712524414
247,323.1399917602539,435.9688949584961
248,322.6502227783203,435.97057342529297
249,322.1491241455078,435.9709930419922
250,321.65260314941406,435.9713363647461
251,321.1819076538086,435.9716033935547
252,320.66688537597656,435.97232818603516
253,320.19996643066406,435.97240447998047
254,319.6813201904297,435.9731674194336
255,319.1869354248047,435.97412109375
256,318.6201858520508,435.9748840332031
257,318.15040588378906,435.9754180908203
258,317.69248962402344,435.97572326660156
259,317.17018127441406,435.9756851196289
260,316.67564392089844,435.9756088256836
261,316.1301803588867,435.9763717651367
262,315.67115783691406,435.9761047363281
263,315.2067565917969,435.97652435302734
264,315.1263999938965,436.42730712890625
265,315.63730239868164,436.43375396728516
266,316.1376190185547,436.4581298828125
267,316.6548156738281,436.4583206176758
268,317.1459770202637,436.4583969116211
269,317.63999938964844,436.4591598510742
270,318.1591033935547,436.45931243896484
271,318.64612579345703,436.46026611328125
272,319.1584777832031,436.46080017089844
273,319.66115951538086,436.46156311035156
274,320.1531219482422,436.46190643310547
275,320.67325592041016,436.46228790283203
276,321.1625289916992,436.46289825439453
277,321.6652297973633,436.46312713623047
278,322.1683883666992,436.46324157714844
279,322.6560592651367,436.4636993408203
280,323.1660461425781,436.4640426635742
281,323.66050720214844,436.4646911621094
282,324.1627502441406,436.4653015136719
283,324.6666717529297,436.46595001220703
284,325.1580810546875,436.4664077758789
285,325.675048828125,436.4676284790039
286,326.16710662841797,436.4679718017578
287,326.6689682006836,436.46888732910156
288,327.1696090698242,436.46968841552734
289,327.6565933227539,436.46995544433594
290,328.16925048828125,436.47090911865234
291,328.6602783203125,436.4712142944336
292,329.16099548339844,436.4717483520508
293,329.6666717529297,436.47254943847656
294,330.16002655029297,436.4734649658203
295,330.6767272949219,436.4727783203125
296,331.16676330566406,436.4735794067383
297,331.1672592163086,437.01221466064453
298,330.6736373901367,436.98211669921875
299,330.2108383178711,436.98108673095703
300,329.69581604003906,436.9806671142578
301,329.14363861083984,436.9797897338867
302,328.61236572265625,436.9780731201172
303,328.15155029296875,436.9770050048828
304,327.6959228515625,436.9770050048828
305,327.1835708618164,436.9766616821289
306,326.6797637939453,436.9768524169922
307,326.12728118896484,436.9766616821289
308,325.6760787963867,436.97628021240234
309,325.20252227783203,436.97628021240234
310,324.67140197753906,436.97628021240234
311,324.1330337524414,436.9759750366211
312,323.6107635498047,436.9756317138672
313,323.14563751220703,436.97540283203125
314,322.6142120361328,436.9754409790039
315,322.1514129638672,436.9755172729492
316,321.64485931396484,436.97505950927734
317,321.1288833618164,436.9752502441406
318,320.66383361816406,436.97505950927734
319,320.2062225341797,436.9752502441406
320,319.69146728515625,436.97471618652344
321,319.14085388183594,436.97486877441406
322,318.6492729187012,436.97460174560547
323,318.14613342285156,436.97505950927734
324,317.6118278503418,436.97479248046875
325,317.14794158935547,436.97460174560547
326,316.63841247558594,436.9746780395508
327,316.18316650390625,436.9745635986328
328,315.66537857055664,436.97486877441406
329,315.20042419433594,436.9747543334961
330,315.1265335083008,437.49149322509766
331,315.61038970947266,437.4919891357422
332,316.1353302001953,437.4919128417969
333,316.6488456726074,437.4921417236328
334,317.13951110839844,437.49149322509766
335,317.63389587402344,437.49156951904297
336,318.1566047668457,437.4912643432617
337,318.64566802978516,437.49088287353516
338,319.1585922241211,437.49080657958984
339,319.66075897216797,437.48985290527344
340,320.15419006347656,437.48897552490234
341,320.67325592041016,437.48912811279297
342,321.16310119628906,437.48870849609375
343,321.6654968261719,437.48863220214844
344,322.16819763183594,437.48809814453125
345,322.65621185302734,437.48748779296875
346,323.16646575927734,437.48714447021484
347,323.6571502685547,437.4874496459961
348,324.1606903076172,437.4867630004883
349,324.66575622558594,437.48661041259766
350,325.159912109375,437.48584747314453
351,325.6769561767578,437.4851608276367
352,326.1676788330078,437.48504638671875
353,326.6653060913086,437.4850845336914
354,327.16705322265625,437.4851989746094
355,327.6592254638672,437.4849319458008
356,328.16761016845703,437.48462677001953
357,328.6585235595703,437.4845504760742
358,329.1611862182617,437.4842071533203
359,329.66625213623047,437.48382568359375
360,330.15872955322266,437.4839782714844
361,330.67527770996094,437.4839401245117
362,331.1640167236328,437.4832534790039
363,331.1712646484375,437.98484802246094
364,330.6720733642578,437.9766082763672
365,330.2117156982422,437.9763412475586
366,329.6982955932617,437.97607421875
367,329.17118072509766,437.9761505126953
368,328.6681365966797,437.97576904296875
369,328.14952850341797,437.97607421875
370,327.6179885864258,437.97576904296875
371,327.1564483642578,437.97618865966797
372,326.6434097290039,437.97611236572266
373,326.18358612060547,437.97595977783203
374,325.6753921508789,437.97611236572266
375,325.2031707763672,437.97637939453125
376,324.67376708984375,437.97607421875
377,324.1337203979492,437.9762649536133
378,323.6106872558594,437.9759979248047
379,323.1501770019531,437.97611236572266
380,322.61600494384766,437.97603607177734
381,322.1601104736328,437.9758834838867
382,321.6661834716797,437.9758834838867
383,321.1278533935547,437.97611236572266
384,320.6724548339844,437.9762268066406
385,320.2056121826172,437.97576904296875
386,319.6875,437.9757308959961
387,319.1587829589844,437.9758071899414
388,318.6130142211914,437.97611236572266
389,318.1413459777832,437.97607421875
390,317.6424980163574,437.9757308959961
391,317.1415328979492,437.97584533691406
392,316.6407775878906,437.9759216308594
393,316.17897033691406,437.9758834838867
394,315.6675720214844,437.9755401611328
395,315.18835067749023,437.97584533691406
396,315.1266098022461,438.4471130371094
397,315.6354522705078,438.51573944091797
398,316.13582611083984,438.51505279541016
399,316.6499710083008,438.5136032104492
400,317.1380805969238,438.5131072998047
401,317.63294219970703,438.51146697998047
402,318.15425872802734,438.50963592529297
403,318.6445999145508,438.5081481933594
404,319.1581344604492,438.5060119628906
405,319.6603775024414,438.50379943847656
406,320.1532745361328,438.4810256958008
407,320.67230224609375,438.4507369995117
408,321.16260528564453,438.45081329345703
409,321.66690826416016,438.4522247314453
410,322.1676254272461,438.45287322998047
411,322.6563262939453,438.4539794921875
412,323.1664276123047,438.45489501953125
413,323.65631103515625,438.4556198120117
414,324.1604995727539,438.4562301635742
415,324.6658706665039,438.45680236816406
416,325.15785217285156,438.4583282470703
417,325.67604064941406,438.45874786376953
418,326.16641998291016,438.45935821533203
419,326.6659927368164,438.4605026245117
420,327.1677780151367,438.4609603881836
421,327.6564407348633,438.4616470336914
422,328.1690979003906,438.4629821777344
423,328.65882873535156,438.4628677368164
424,329.16202545166016,438.4635543823242
425,329.66651916503906,438.4640121459961
426,330.1587677001953,438.4647750854492
427,330.67481994628906,438.46527099609375
428,331.16756439208984,438.46553802490234
429,331.16947174072266,438.9286804199219
430,330.6809616088867,438.9394760131836
431,330.21175384521484,438.95999908447266
432,329.6963882446289,438.96053314208984
433,329.1570281982422,438.96045684814453
434,328.6369323730469,438.9626693725586
435,328.1555938720703,438.96366119384766
436,327.61627197265625,438.9659118652344
437,327.1571731567383,438.9658737182617
438,326.65721893310547,438.96663665771484
439,326.1833953857422,438.96732330322266
440,325.6708526611328,438.9676284790039
441,325.19630432128906,438.96862030029297
442,324.65091705322266,438.96934509277344
443,324.1558074951172,438.9696502685547
444,323.61358642578125,438.9712905883789
445,323.1610870361328,438.9716339111328
446,322.6987838745117,438.97220611572266
447,322.1873092651367,438.9722442626953
448,321.6579818725586,438.97254943847656
449,321.12998962402344,438.9731216430664
450,320.665283203125,438.9731979370117
451,320.2069091796875,438.9731216430664
452,319.6907424926758,438.97350311279297
453,319.1565704345703,438.9744186401367
454,318.62438201904297,438.9753723144531
455,318.1541061401367,438.9748764038086
456,317.6963806152344,438.97491455078125
457,317.16712951660156,438.97491455078125
458,316.65443420410156,438.97464752197266
459,316.13298416137695,438.9748001098633
460,315.66240310668945,438.9746856689453
461,315.2057075500488,438.97510528564453
462,315.2051544189453,439.5180892944336
463,315.66015243530273,439.34715270996094
464,316.16371154785156,439.3503952026367
465,316.6649627685547,439.35970306396484
466,317.1677780151367,439.3870544433594
467,317.6552963256836,439.42378997802734
468,318.1673049926758,439.5086669921875
469,318.6569023132324,439.5082092285156
470,319.1612243652344,439.50775146484375
471,319.66739654541016,439.5072555541992
472,320.15758514404297,439.50660705566406
473,320.6747817993164,439.505615234375
474,321.16504669189453,439.50416564941406
475,321.66603088378906,439.5027160644531
476,322.1692657470703,439.50008392333984
